id,Lat,Lon,cluster
1,6.627922,44.422007,0
2,6.628048,44.422003,0
3,6.628173,44.421999,0
4,6.628298,44.421995,0
5,6.628424,44.421991,0
6,6.628549,44.421987,0
7,6.628675,44.421983,0
8,6.6288,44.421979,0
9,6.628925,44.421975,0
10,6.629051,44.421971,0
11,6.629176,44.421967,0
12,6.629301,44.421963,0
13,6.629427,44.421959,0
14,6.629552,44.421955,0
15,6.629678,44.421951,0
16,6.629803,44.421947,0
17,6.629928,44.421943,0
18,6.630054,44.421939,0
19,6.630179,44.421935,0
20,6.630304,44.421931,0
21,6.63043,44.421927,0
22,6.630555,44.421923,0
23,6.630681,44.421919,0
24,6.630806,44.421915,0
25,6.630931,44.421911,0
26,6.631057,44.421907,0
27,6.631182,44.421903,0
28,6.631307,44.421899,0
29,6.631433,44.421895,0
30,6.631558,44.421891,0
31,6.631683,44.421887,0
32,6.631809,44.421883,0
33,6.631934,44.421879,0
34,6.63206,44.421875,0
35,6.632185,44.421871,0
36,6.63231,44.421867,0
37,6.632436,44.421863,0
38,6.632561,44.421859,0
39,6.632686,44.421855,0
40,6.632812,44.421851,0
41,6.632937,44.421847,0
42,6.633063,44.421843,0
43,6.633188,44.421839,0
44,6.633313,44.421835,0
45,6.633439,44.421831,0
46,6.633564,44.421827,0
47,6.633689,44.421823,0
48,6.633815,44.421819,0
49,6.63394,44.421815,0
50,6.634065,44.421811,0
51,6.634191,44.421807,0
52,6.634316,44.421803,0
53,6.634442,44.421799,0
54,6.634567,44.421795,0
55,6.634692,44.421791,0
56,6.634818,44.421787,0
57,6.634943,44.421783,0
58,6.635068,44.421779,0
59,6.635194,44.421775,0
60,6.635319,44.421771,0
61,6.635445,44.421767,0
62,6.63557,44.421763,0
63,6.635695,44.421759,0
64,6.635821,44.421755,0
65,6.635946,44.421751,0
66,6.636071,44.421747,0
67,6.636197,44.421743,0
68,6.636322,44.421739,0
69,6.636447,44.421735,0
70,6.636573,44.421731,0
71,6.636698,44.421727,0
72,6.636824,44.421723,0
73,6.636949,44.421719,0
74,6.637074,44.421715,0
75,6.6372,44.421711,0
76,6.637325,44.421707,0
77,6.63745,44.421703,0
78,6.637576,44.421699,0
79,6.637701,44.421695,0
80,6.637827,44.421691,0
81,6.637952,44.421687,0
82,6.638077,44.421683,0
83,6.638203,44.421679,0
84,6.638328,44.421675,0
85,6.638453,44.421671,0
86,6.638579,44.421667,0
87,6.638704,44.421663,0
88,6.638829,44.421659,0
89,6.638955,44.421655,0
90,6.63908,44.421651,0
91,6.639206,44.421647,0
92,6.639331,44.421643,0
93,6.639456,44.421639,0
94,6.639582,44.421635,0
95,6.639707,44.421631,0
96,6.639832,44.421627,0
97,6.639958,44.421623,0
98,6.640083,44.421619,0
99,6.640209,44.421615,0
100,6.640334,44.421611,0
101,6.640459,44.421607,0
102,6.640585,44.421603,0
103,6.64071,44.421599,0
104,6.640835,44.421595,0
105,6.640961,44.421591,0
106,6.641086,44.421587,0
107,6.641211,44.421583,0
108,6.641337,44.421579,0
109,6.641462,44.421575,0
110,6.641588,44.421571,0
111,6.641713,44.421567,0
112,6.641838,44.421563,0
113,6.641964,44.421559,0
114,6.642089,44.421555,0
115,6.642214,44.421551,0
116,6.64234,44.421547,0
117,6.642465,44.421543,0
118,6.642591,44.421539,0
119,6.642716,44.421535,0
120,6.642841,44.421531,0
121,6.642967,44.421527,0
122,6.643092,44.421523,0
123,6.643217,44.421519,0
124,6.643343,44.421515,0
125,6.643468,44.421511,0
126,6.643593,44.421507,0
127,6.643719,44.421503,0
128,6.643844,44.421499,0
129,6.64397,44.421495,0
130,6.644095,44.421491,0
131,6.64422,44.421487,0
132,6.644346,44.421483,0
133,6.644471,44.421479,0
134,6.644596,44.421475,0
135,6.644722,44.421471,0
136,6.644847,44.421467,0
137,6.644972,44.421463,0
138,6.645098,44.421459,0
139,6.645223,44.421455,0
140,6.645349,44.421451,0
141,6.645474,44.421447,0
142,6.645599,44.421443,0
143,6.645725,44.421439,0
144,6.64585,44.421435,0
145,6.645975,44.421431,0
146,6.646101,44.421427,0
147,6.646226,44.421423,0
148,6.646352,44.421419,0
149,6.646477,44.421415,0
150,6.646602,44.421411,0
151,6.646728,44.421407,0
152,6.646853,44.421403,0
153,6.646978,44.421399,0
154,6.647104,44.421395,0
155,6.647229,44.421391,0
156,6.647354,44.421387,0
157,6.64748,44.421383,0
158,6.647605,44.421379,0
159,6.647731,44.421375,0
160,6.647856,44.421371,0
161,6.647981,44.421367,0
162,6.648107,44.421363,0
163,6.648232,44.421359,0
164,6.648357,44.421355,0
165,6.648483,44.421351,0
166,6.648608,44.421347,0
167,6.648733,44.421343,0
168,6.648859,44.421339,0
169,6.648984,44.421335,0
170,6.64911,44.421331,0
171,6.649235,44.421327,0
172,6.64936,44.421323,0
173,6.649486,44.421319,0
174,6.649611,44.421315,0
175,6.649736,44.421311,0
176,6.649862,44.421307,0
177,6.649987,44.421303,0
178,6.650112,44.421299,0
179,6.650238,44.421295,0
180,6.650363,44.421291,0
181,6.650489,44.421287,0
182,6.650614,44.421283,0
183,6.650739,44.421279,0
184,6.650865,44.421275,0
185,6.65099,44.421271,0
186,6.651115,44.421267,0
187,6.651241,44.421263,0
188,6.651366,44.421259,0
189,6.651492,44.421254,0
190,6.651617,44.42125,0
191,6.651742,44.421246,0
192,6.651868,44.421242,0
193,6.651993,44.421238,0
194,6.652118,44.421234,0
195,6.652244,44.42123,0
196,6.652369,44.421226,0
197,6.652494,44.421222,0
198,6.65262,44.421218,0
199,6.652745,44.421214,0
200,6.652871,44.42121,0
201,6.652996,44.421206,0
202,6.653121,44.421202,0
203,6.653247,44.421198,0
204,6.653372,44.421194,0
205,6.653497,44.42119,0
206,6.653623,44.421186,0
207,6.653748,44.421182,0
208,6.653873,44.421178,0
209,6.653999,44.421174,0
210,6.654124,44.42117,0
211,6.65425,44.421166,0
212,6.654375,44.421162,0
213,6.6545,44.421158,0
214,6.654626,44.421154,0
215,6.654751,44.42115,0
216,6.654876,44.421146,0
217,6.655002,44.421142,0
218,6.655127,44.421138,-1
219,6.655252,44.421134,0
220,6.655378,44.42113,0
221,6.655503,44.421126,0
222,6.655629,44.421122,0
223,6.655754,44.421118,0
224,6.655879,44.421114,0
225,6.656005,44.42111,0
226,6.65613,44.421106,0
227,6.656255,44.421102,0
228,6.656381,44.421098,0
229,6.656506,44.421094,0
230,6.656631,44.42109,0
231,6.656757,44.421086,0
232,6.656882,44.421082,0
233,6.657008,44.421078,0
234,6.657133,44.421074,0
235,6.657258,44.42107,0
236,6.657384,44.421066,0
237,6.657509,44.421062,0
238,6.657634,44.421058,0
239,6.65776,44.421054,0
240,6.657885,44.42105,0
241,6.65801,44.421046,0
242,6.658136,44.421042,0
243,6.658261,44.421038,0
244,6.658387,44.421034,0
245,6.658512,44.42103,0
246,6.658637,44.421026,0
247,6.658763,44.421022,0
248,6.658888,44.421017,0
249,6.659013,44.421013,0
250,6.659139,44.421009,0
251,6.659264,44.421005,0
252,6.659389,44.421001,0
253,6.659515,44.420997,0
254,6.65964,44.420993,0
255,6.659766,44.420989,0
256,6.659891,44.420985,0
257,6.660016,44.420981,0
258,6.660142,44.420977,0
259,6.660267,44.420973,0
260,6.660392,44.420969,0
261,6.660518,44.420965,0
262,6.660643,44.420961,0
263,6.660768,44.420957,0
264,6.660894,44.420953,0
265,6.661019,44.420949,0
266,6.661145,44.420945,0
267,6.66127,44.420941,0
268,6.661395,44.420937,0
269,6.661521,44.420933,0
270,6.661646,44.420929,0
271,6.661771,44.420925,0
272,6.661897,44.420921,0
273,6.662022,44.420917,0
274,6.662147,44.420913,0
275,6.662273,44.420909,0
276,6.662398,44.420905,0
277,6.662524,44.420901,0
278,6.662649,44.420897,0
279,6.662774,44.420893,0
280,6.6629,44.420889,0
281,6.663025,44.420885,0
282,6.66315,44.420881,0
283,6.663276,44.420877,0
284,6.663401,44.420873,0
285,6.663526,44.420869,0
286,6.663652,44.420865,0
287,6.663777,44.420861,0
288,6.663903,44.420857,0
289,6.664028,44.420852,0
290,6.664153,44.420848,0
291,6.664279,44.420844,0
292,6.664404,44.42084,0
294,6.627917,44.421917,0
295,6.628042,44.421913,0
296,6.628168,44.421909,0
297,6.628293,44.421905,0
298,6.628418,44.421901,0
299,6.628544,44.421897,0
300,6.628669,44.421893,0
301,6.628794,44.421889,0
302,6.62892,44.421885,0
303,6.629045,44.421881,0
304,6.629171,44.421877,0
305,6.629296,44.421873,0
306,6.629421,44.421869,0
307,6.629547,44.421865,0
308,6.629672,44.421861,0
309,6.629797,44.421857,0
310,6.629923,44.421853,0
311,6.630048,44.421849,0
312,6.630173,44.421845,0
313,6.630299,44.421841,0
314,6.630424,44.421837,0
315,6.63055,44.421833,0
316,6.630675,44.421829,0
317,6.6308,44.421825,0
318,6.630926,44.421821,0
319,6.631051,44.421817,0
320,6.631176,44.421813,0
321,6.631302,44.421809,0
322,6.631427,44.421805,0
323,6.631553,44.421801,0
324,6.631678,44.421797,0
325,6.631803,44.421793,0
326,6.631929,44.421789,0
327,6.632054,44.421785,0
328,6.632179,44.421781,0
329,6.632305,44.421777,0
330,6.63243,44.421773,0
331,6.632555,44.421769,0
332,6.632681,44.421765,0
333,6.632806,44.421761,0
334,6.632932,44.421757,0
335,6.633057,44.421753,0
336,6.633182,44.421749,0
337,6.633308,44.421745,0
338,6.633433,44.421741,0
339,6.633558,44.421737,0
340,6.633684,44.421733,0
341,6.633809,44.421729,0
342,6.633935,44.421725,0
343,6.63406,44.421721,0
344,6.634185,44.421717,0
345,6.634311,44.421713,0
346,6.634436,44.421709,0
347,6.634561,44.421705,0
348,6.634687,44.421701,0
349,6.634812,44.421697,0
350,6.634937,44.421693,0
351,6.635063,44.421689,0
352,6.635188,44.421685,0
353,6.635314,44.421681,0
354,6.635439,44.421677,0
355,6.635564,44.421673,0
356,6.63569,44.421669,0
357,6.635815,44.421665,0
358,6.63594,44.421661,0
359,6.636066,44.421657,0
360,6.636191,44.421653,0
361,6.636317,44.421649,0
362,6.636442,44.421645,0
363,6.636567,44.421641,0
364,6.636693,44.421637,0
365,6.636818,44.421633,0
366,6.636943,44.421629,0
367,6.637069,44.421625,0
368,6.637194,44.421621,0
369,6.637319,44.421617,0
370,6.637445,44.421613,0
371,6.63757,44.421609,0
372,6.637696,44.421605,0
373,6.637821,44.421601,0
374,6.637946,44.421597,0
375,6.638072,44.421593,0
376,6.638197,44.421589,0
377,6.638322,44.421585,0
378,6.638448,44.421581,0
379,6.638573,44.421577,0
380,6.638699,44.421573,0
381,6.638824,44.421569,0
382,6.638949,44.421565,0
383,6.639075,44.421561,0
384,6.6392,44.421557,0
385,6.639325,44.421553,0
386,6.639451,44.421549,0
387,6.639576,44.421545,0
388,6.639701,44.421541,0
389,6.639827,44.421537,0
390,6.639952,44.421533,0
391,6.640078,44.421529,0
392,6.640203,44.421525,0
393,6.640328,44.421521,0
394,6.640454,44.421517,0
395,6.640579,44.421513,0
396,6.640704,44.421509,0
397,6.64083,44.421505,0
398,6.640955,44.421501,0
399,6.641081,44.421497,0
400,6.641206,44.421493,0
401,6.641331,44.421489,0
402,6.641457,44.421485,0
403,6.641582,44.421481,0
404,6.641707,44.421477,0
405,6.641833,44.421473,0
406,6.641958,44.421469,0
407,6.642083,44.421465,0
408,6.642209,44.421461,0
409,6.642334,44.421457,0
410,6.64246,44.421453,0
411,6.642585,44.421449,0
412,6.64271,44.421445,0
413,6.642836,44.421441,0
414,6.642961,44.421437,0
415,6.643086,44.421433,0
416,6.643212,44.421429,0
417,6.643337,44.421425,0
418,6.643462,44.421421,0
419,6.643588,44.421417,0
420,6.643713,44.421413,0
421,6.643839,44.421409,0
422,6.643964,44.421405,0
423,6.644089,44.421401,0
424,6.644215,44.421397,0
425,6.64434,44.421393,0
426,6.644465,44.421389,0
427,6.644591,44.421385,0
428,6.644716,44.421381,0
429,6.644842,44.421377,0
430,6.644967,44.421373,0
431,6.645092,44.421369,0
432,6.645218,44.421365,0
433,6.645343,44.421361,0
434,6.645468,44.421357,0
435,6.645594,44.421353,0
436,6.645719,44.421349,0
437,6.645844,44.421345,0
438,6.64597,44.421341,0
439,6.646095,44.421337,0
440,6.646221,44.421333,0
441,6.646346,44.421329,0
442,6.646471,44.421325,0
443,6.646597,44.421321,0
444,6.646722,44.421317,0
445,6.646847,44.421313,0
446,6.646973,44.421309,0
447,6.647098,44.421305,0
448,6.647223,44.421301,0
449,6.647349,44.421297,0
450,6.647474,44.421293,0
451,6.6476,44.421289,0
452,6.647725,44.421285,0
453,6.64785,44.421281,0
454,6.647976,44.421277,0
455,6.648101,44.421273,0
456,6.648226,44.421269,0
457,6.648352,44.421265,0
458,6.648477,44.421261,0
459,6.648603,44.421257,0
460,6.648728,44.421253,0
461,6.648853,44.421249,0
462,6.648979,44.421245,0
463,6.649104,44.421241,0
464,6.649229,44.421237,0
465,6.649355,44.421233,0
466,6.64948,44.421229,0
467,6.649605,44.421225,0
468,6.649731,44.421221,0
469,6.649856,44.421217,0
470,6.649982,44.421213,0
471,6.650107,44.421209,0
472,6.650232,44.421205,0
473,6.650358,44.421201,0
474,6.650483,44.421197,0
475,6.650608,44.421193,0
476,6.650734,44.421189,0
477,6.650859,44.421185,0
478,6.650984,44.421181,0
479,6.65111,44.421177,0
480,6.651235,44.421173,0
481,6.651361,44.421169,0
482,6.651486,44.421165,0
483,6.651611,44.421161,0
484,6.651737,44.421157,0
485,6.651862,44.421153,0
486,6.651987,44.421149,0
487,6.652113,44.421145,0
488,6.652238,44.421141,0
489,6.652363,44.421137,0
490,6.652489,44.421133,0
491,6.652614,44.421129,0
492,6.65274,44.421125,0
493,6.652865,44.421121,0
494,6.65299,44.421116,0
495,6.653116,44.421112,0
496,6.653241,44.421108,0
497,6.653366,44.421104,0
498,6.653492,44.4211,0
499,6.653617,44.421096,0
500,6.653742,44.421092,0
501,6.653868,44.421088,0
502,6.653993,44.421084,0
503,6.654119,44.42108,0
504,6.654244,44.421076,0
505,6.654369,44.421072,0
506,6.654495,44.421068,0
507,6.65462,44.421064,0
508,6.654745,44.42106,0
509,6.654871,44.421056,0
510,6.654996,44.421052,0
511,6.655121,44.421048,0
512,6.655247,44.421044,0
513,6.655372,44.42104,0
514,6.655498,44.421036,0
515,6.655623,44.421032,0
516,6.655748,44.421028,0
517,6.655874,44.421024,0
518,6.655999,44.42102,0
519,6.656124,44.421016,0
520,6.65625,44.421012,0
521,6.656375,44.421008,0
522,6.6565,44.421004,0
523,6.656626,44.421,0
524,6.656751,44.420996,0
525,6.656877,44.420992,0
526,6.657002,44.420988,0
527,6.657127,44.420984,0
528,6.657253,44.42098,0
529,6.657378,44.420976,0
530,6.657503,44.420972,0
531,6.657629,44.420968,0
532,6.657754,44.420964,0
533,6.65788,44.42096,0
534,6.658005,44.420956,0
535,6.65813,44.420952,0
536,6.658256,44.420948,0
537,6.658381,44.420944,0
538,6.658506,44.42094,0
539,6.658632,44.420936,0
540,6.658757,44.420932,0
541,6.658882,44.420928,0
542,6.659008,44.420924,0
543,6.659133,44.42092,0
544,6.659258,44.420916,0
545,6.659384,44.420912,0
546,6.659509,44.420908,0
547,6.659635,44.420904,0
548,6.65976,44.420899,0
549,6.659885,44.420895,0
550,6.660011,44.420891,0
551,6.660136,44.420887,0
552,6.660261,44.420883,0
553,6.660387,44.420879,0
554,6.660512,44.420875,0
555,6.660637,44.420871,0
556,6.660763,44.420867,0
557,6.660888,44.420863,0
558,6.661014,44.420859,0
559,6.661139,44.420855,0
560,6.661264,44.420851,0
561,6.66139,44.420847,0
562,6.661515,44.420843,0
563,6.66164,44.420839,0
564,6.661766,44.420835,0
565,6.661891,44.420831,0
566,6.662016,44.420827,0
567,6.662142,44.420823,0
568,6.662267,44.420819,0
569,6.662393,44.420815,0
570,6.662518,44.420811,0
571,6.662643,44.420807,0
572,6.662769,44.420803,0
573,6.662894,44.420799,0
574,6.663019,44.420795,0
575,6.663145,44.420791,0
576,6.66327,44.420787,0
577,6.663395,44.420783,0
578,6.663521,44.420779,0
579,6.663646,44.420775,0
580,6.663772,44.420771,0
581,6.663897,44.420767,0
582,6.664022,44.420763,0
583,6.664148,44.420759,0
584,6.664273,44.420755,0
585,6.664398,44.420751,0
587,6.627911,44.421827,0
588,6.628037,44.421823,0
589,6.628162,44.421819,0
590,6.628287,44.421815,0
591,6.628413,44.421811,0
592,6.628538,44.421807,0
593,6.628663,44.421803,0
594,6.628789,44.421799,0
595,6.628914,44.421795,0
596,6.62904,44.421791,0
597,6.629165,44.421787,0
598,6.62929,44.421783,0
599,6.629416,44.421779,0
600,6.629541,44.421775,0
601,6.629666,44.421771,0
602,6.629792,44.421767,0
603,6.629917,44.421763,0
604,6.630043,44.421759,0
605,6.630168,44.421755,0
606,6.630293,44.421751,0
607,6.630419,44.421747,0
608,6.630544,44.421743,0
609,6.630669,44.421739,0
610,6.630795,44.421735,0
611,6.63092,44.421731,0
612,6.631045,44.421727,0
613,6.631171,44.421723,0
614,6.631296,44.421719,0
615,6.631422,44.421715,0
616,6.631547,44.421711,0
617,6.631672,44.421707,0
618,6.631798,44.421703,0
619,6.631923,44.421699,0
620,6.632048,44.421695,0
621,6.632174,44.421691,0
622,6.632299,44.421687,0
623,6.632425,44.421683,0
624,6.63255,44.421679,0
625,6.632675,44.421675,0
626,6.632801,44.421671,0
627,6.632926,44.421667,0
628,6.633051,44.421663,0
629,6.633177,44.421659,0
630,6.633302,44.421655,0
631,6.633427,44.421651,0
632,6.633553,44.421647,0
633,6.633678,44.421643,0
634,6.633804,44.421639,0
635,6.633929,44.421635,0
636,6.634054,44.421631,0
637,6.63418,44.421627,0
638,6.634305,44.421623,0
639,6.63443,44.421619,0
640,6.634556,44.421615,0
641,6.634681,44.421611,0
642,6.634807,44.421607,0
643,6.634932,44.421603,0
644,6.635057,44.421599,0
645,6.635183,44.421595,0
646,6.635308,44.421591,0
647,6.635433,44.421587,0
648,6.635559,44.421583,0
649,6.635684,44.421579,0
650,6.635809,44.421575,0
651,6.635935,44.421571,0
652,6.63606,44.421567,0
653,6.636186,44.421563,0
654,6.636311,44.421559,0
655,6.636436,44.421555,0
656,6.636562,44.421551,0
657,6.636687,44.421547,0
658,6.636812,44.421543,0
659,6.636938,44.421539,0
660,6.637063,44.421535,0
661,6.637189,44.421531,0
662,6.637314,44.421527,0
663,6.637439,44.421523,0
664,6.637565,44.421519,0
665,6.63769,44.421515,0
666,6.637815,44.421511,0
667,6.637941,44.421507,0
668,6.638066,44.421503,0
669,6.638191,44.421499,0
670,6.638317,44.421495,0
671,6.638442,44.421491,0
672,6.638568,44.421487,0
673,6.638693,44.421483,0
674,6.638818,44.421479,0
675,6.638944,44.421475,0
676,6.639069,44.421471,0
677,6.639194,44.421467,0
678,6.63932,44.421463,0
679,6.639445,44.421459,0
680,6.639571,44.421455,0
681,6.639696,44.421451,0
682,6.639821,44.421447,0
683,6.639947,44.421443,0
684,6.640072,44.421439,0
685,6.640197,44.421435,0
686,6.640323,44.421431,0
687,6.640448,44.421427,0
688,6.640573,44.421423,0
689,6.640699,44.421419,0
690,6.640824,44.421415,0
691,6.64095,44.421411,0
692,6.641075,44.421407,0
693,6.6412,44.421403,0
694,6.641326,44.421399,0
695,6.641451,44.421395,0
696,6.641576,44.421391,0
697,6.641702,44.421387,0
698,6.641827,44.421383,0
699,6.641953,44.421379,0
700,6.642078,44.421375,0
701,6.642203,44.421371,0
702,6.642329,44.421367,0
703,6.642454,44.421363,0
704,6.642579,44.421359,0
705,6.642705,44.421355,0
706,6.64283,44.421351,0
707,6.642955,44.421347,0
708,6.643081,44.421343,0
709,6.643206,44.421339,0
710,6.643332,44.421335,0
711,6.643457,44.421331,0
712,6.643582,44.421327,0
713,6.643708,44.421323,0
714,6.643833,44.421319,0
715,6.643958,44.421315,0
716,6.644084,44.421311,0
717,6.644209,44.421307,0
718,6.644334,44.421303,0
719,6.64446,44.421299,0
720,6.644585,44.421295,0
721,6.644711,44.421291,0
722,6.644836,44.421287,0
723,6.644961,44.421283,0
724,6.645087,44.421279,0
725,6.645212,44.421275,0
726,6.645337,44.421271,0
727,6.645463,44.421267,0
728,6.645588,44.421263,0
729,6.645714,44.421259,0
730,6.645839,44.421255,0
731,6.645964,44.421251,0
732,6.64609,44.421247,0
733,6.646215,44.421243,0
734,6.64634,44.421239,0
735,6.646466,44.421235,0
736,6.646591,44.421231,0
737,6.646716,44.421227,0
738,6.646842,44.421223,0
739,6.646967,44.421219,0
740,6.647093,44.421215,0
741,6.647218,44.421211,0
742,6.647343,44.421207,0
743,6.647469,44.421203,0
744,6.647594,44.421199,0
745,6.647719,44.421195,0
746,6.647845,44.421191,0
747,6.64797,44.421187,0
748,6.648095,44.421183,0
749,6.648221,44.421179,0
750,6.648346,44.421175,0
751,6.648472,44.421171,0
752,6.648597,44.421167,0
753,6.648722,44.421163,0
754,6.648848,44.421159,0
755,6.648973,44.421155,0
756,6.649098,44.421151,0
757,6.649224,44.421147,0
758,6.649349,44.421143,0
759,6.649474,44.421139,0
760,6.6496,44.421135,0
761,6.649725,44.421131,0
762,6.649851,44.421127,0
763,6.649976,44.421123,0
764,6.650101,44.421119,0
765,6.650227,44.421115,0
766,6.650352,44.421111,0
767,6.650477,44.421107,0
768,6.650603,44.421103,0
769,6.650728,44.421099,0
770,6.650853,44.421095,0
771,6.650979,44.421091,0
772,6.651104,44.421087,0
773,6.65123,44.421083,0
774,6.651355,44.421079,-1
775,6.65148,44.421075,0
776,6.651606,44.421071,0
777,6.651731,44.421067,0
778,6.651856,44.421063,0
